# Acetate(C2) -- Acetate(C2) in GB*
# r0[nm] k[kCal/mol/nm^2]
0.2640 18.652366
0.2680 16.759223
0.2720 15.205400
0.2760 13.811456
0.2800 12.585000
0.2840 11.494049
0.2880 10.543430
0.2920 9.682189
0.2960 8.946502
0.3000 8.255979
0.3040 7.642368
0.3080 7.126191
0.3120 6.623770
0.3160 6.182166
0.3199 5.765382
0.3239 5.400072
0.3279 5.050690
0.3319 4.743262
0.3359 4.440168
0.3399 4.160108
0.3439 3.909685
0.3479 3.693802
0.3519 3.488682
0.3559 3.269744
0.3599 3.069452
0.3639 2.907258
0.3679 2.724172
0.3719 2.593029
0.3759 2.464746
0.3799 2.337232
0.3839 2.225203
0.3879 2.077965
0.3919 2.004030
0.3959 1.918077
0.3999 1.841251
0.4039 1.760093
0.4079 1.710510
0.4119 1.663931
0.4159 1.568405
0.4199 1.537837
0.4239 1.477522
0.4279 1.455574
0.4319 1.361493
0.4359 1.370180
0.4399 1.260149
0.4438 1.206649
0.4478 1.201861
0.4518 1.116327
0.4558 1.015088
0.4598 0.992753
0.4638 0.941486
0.4678 0.915309
0.4718 0.873796
0.4758 0.849253
0.4798 0.805431
0.4838 0.788434
0.4878 0.719983
0.4918 0.652180
0.4958 0.644731
0.4998 0.615250
0.5038 0.577580
0.5078 0.562860
0.5118 0.543812
0.5158 0.503522
0.5198 0.439714
0.5238 0.437571
0.5278 0.434666
0.5318 0.435195
0.5358 0.428196
0.5398 0.440110
0.5438 0.424883
0.5478 0.424491
0.5518 0.433407
0.5558 0.477009
0.5598 0.461414
0.5637 0.480417
0.5677 0.440450
0.5717 0.441861
0.5757 0.427703
0.5797 0.381070
0.5837 0.366961
0.5877 0.371248
0.5917 0.388843
0.5957 0.375708
0.5997 0.346846
0.6037 0.381266
0.6077 0.365234
0.6117 0.365606
0.6157 0.387233
0.6197 0.440903
0.6237 0.387101
0.6277 0.415483
0.6317 0.420749
0.6357 0.441426
0.6397 0.420372
0.6437 0.427272
0.6477 0.428609
0.6517 0.445218
0.6557 0.484943
0.6597 0.500819
0.6637 0.509495
0.6677 0.504793
0.6717 0.469834
0.6757 0.485089
0.6797 0.477955
0.6837 0.471744
0.6876 0.469186
0.6916 0.502286
0.6956 0.446124
0.6996 0.436002
0.7036 0.408180
0.7076 0.377735
0.7116 0.397714
0.7156 0.381446
0.7196 0.349941
0.7236 0.331740
0.7276 0.328828
0.7316 0.257421
0.7356 0.276677
0.7396 0.237853
0.7436 0.228112
0.7476 0.224138
0.7516 0.222414
0.7556 0.239003
0.7596 0.184773
0.7636 0.157000
0.7676 0.189059
0.7716 0.193427
0.7756 0.152938
0.7796 0.110795
0.7836 0.104681
0.7876 0.080058
0.7916 0.123894
0.7956 0.158960
0.7996 0.145718
0.8036 0.172590
0.8075 0.168804
0.8115 0.122589
0.8155 0.139253
0.8195 0.158487
0.8235 0.142434
0.8275 0.088480
0.8315 0.081416
0.8355 0.133637
0.8395 0.087642
0.8435 0.082317
0.8475 0.079934
0.8515 0.111602
0.8555 0.100730
0.8595 0.105133
0.8635 0.143601
0.8675 0.106513
0.8715 0.142922
0.8755 0.118960
0.8795 0.113197
0.8835 0.176424
0.8875 0.113891
0.8915 0.156109
0.8955 0.092852
0.8995 0.106005
0.9035 0.101855
0.9075 0.131011
0.9115 0.111089
0.9155 0.140503
0.9195 0.110081
0.9235 0.121511
0.9275 0.100199
0.9314 0.141350
0.9354 0.102836
0.9394 0.149282
0.9434 0.109654
0.9474 0.081276
0.9514 0.076559
0.9554 0.128801
0.9594 0.123182
0.9634 0.128583
0.9674 0.100180
0.9714 0.042786
0.9754 0.081769
0.9794 0.103271
0.9834 0.040194
0.9874 0.084516
0.9914 0.023658
0.9954 0.022788
0.9994 -0.025759
1.0034 -0.033201
1.0074 -0.053404
1.0114 0.000942
1.0154 -0.042339
1.0194 -0.035391
1.0234 -0.005595
1.0274 -0.014685
1.0314 -0.089338
1.0354 0.002858
1.0394 0.014153
1.0434 -0.022063
1.0474 0.011042
1.0514 -0.020310
1.0553 -0.038578
1.0593 -0.044680
1.0633 0.008401
1.0673 -0.001070
1.0713 -0.052627
1.0753 -0.045997
1.0793 -0.057621
1.0833 -0.054461
1.0873 -0.058149
1.0913 -0.032998
1.0953 -0.036667
1.0993 0.002208
1.1033 -0.044359
1.1073 0.021012
1.1113 -0.050976
1.1153 -0.039783
1.1193 -0.026135
1.1233 -0.024391
1.1273 -0.028742
1.1313 -0.020114
1.1353 -0.014948
1.1393 0.002729
1.1433 -0.019609
1.1473 -0.035027
1.1513 -0.036068
1.1553 -0.006252
1.1593 0.003661
1.1633 -0.022740
1.1673 -0.025062
1.1713 -0.009678
1.1752 -0.020234
1.1792 -0.096710
1.1832 -0.043412
1.1872 -0.009207
1.1912 -0.022418
1.1952 0.061093
1.1992 0.000000
1.2032 0.015905
1.2072 0.021944
1.2112 -0.005990
1.2152 0.009074
1.2192 -0.000817
1.2232 0.068821
1.2272 0.038789
1.2312 0.044735
1.2352 0.004987
1.2392 0.030785
1.2432 -0.008712
1.2472 0.007298
1.2512 0.044652
1.2552 -0.041189
1.2592 -0.010468
1.2632 0.023342
1.2672 -0.047962
1.2712 0.013472
1.2752 0.010371
1.2792 0.044312
1.2832 0.026840
1.2872 -0.013001
1.2912 -0.024846
1.2952 0.017689
1.2991 -0.009043
1.3031 -0.020782
1.3071 0.006762
1.3111 -0.005034
1.3151 -0.048708
1.3191 -0.030585
1.3231 0.023478
1.3271 -0.006507
1.3311 -0.053511
1.3351 0.001999
1.3391 0.024033
1.3431 0.016031
1.3471 -0.044446
1.3511 0.016959
1.3551 -0.074174
1.3591 0.006331
1.3631 -0.022545
1.3671 -0.013694
1.3711 -0.064090
1.3751 -0.067442
1.3791 0.033545
1.3831 -0.044879
1.3871 -0.055792
1.3911 -0.038267
1.3951 -0.086603
1.3991 -0.055947
1.4031 -0.107407
1.4071 -0.052422
1.4111 -0.017113
1.4151 -0.019323
1.4190 -0.044487
1.4230 -0.089855
1.4270 -0.060234
1.4310 -0.043417
1.4350 -0.034608
1.4390 -0.061683
1.4430 -0.043732
1.4470 -0.087512
1.4510 -0.044687
1.4550 -0.071401
1.4590 -0.003220
1.4630 -0.065754
1.4670 -0.049677
1.4710 -0.006997
1.4750 -0.040429
1.4790 -0.048979
1.4830 -0.067917
1.4870 -0.029724
1.4910 -0.051923
1.4950 -0.046819
1.4990 -0.030813
1.5030 -0.061976
1.5070 -0.053184
1.5110 -0.000299
1.5150 -0.051945
1.5190 -0.028005
1.5230 0.015741
1.5270 -0.035911
1.5310 -0.018564
1.5350 -0.053097
1.5390 -0.006904
1.5429 -0.064332
1.5469 0.000163
