# Acetate(C2) -- Ca in GB**
# r0[nm] k[kCal/mol/nm^2]
0.2592 5.651235
0.2632 3.571276
0.2672 1.833437
0.2712 0.503734
0.2752 -0.450729
0.2792 -1.039616
0.2832 -1.465951
0.2872 -1.712780
0.2912 -1.855361
0.2952 -1.917796
0.2992 -1.884442
0.3032 -1.806975
0.3072 -1.639114
0.3112 -1.450654
0.3152 -1.349505
0.3192 -1.288195
0.3232 -1.354717
0.3272 -1.492015
0.3312 -1.653453
0.3352 -1.706620
0.3392 -1.704704
0.3432 -1.610756
0.3472 -1.500248
0.3512 -1.334448
0.3552 -1.150603
0.3592 -0.987794
0.3632 -0.743875
0.3672 -0.574433
0.3712 -0.295315
0.3752 -0.030378
0.3792 0.254739
0.3832 0.461101
0.3872 0.648888
0.3912 0.799784
0.3952 1.010623
0.3992 0.887616
0.4032 0.845425
0.4072 0.686750
0.4112 0.489989
0.4152 0.287313
0.4192 0.117889
0.4232 -0.031153
0.4272 -0.207432
0.4312 -0.328278
0.4352 -0.451957
0.4392 -0.645831
0.4432 -0.741132
0.4473 -0.826877
0.4513 -0.867698
0.4553 -0.854964
0.4593 -0.869811
0.4633 -0.849759
0.4673 -0.843143
0.4713 -0.861494
0.4753 -0.850105
0.4793 -0.826151
0.4833 -0.814019
0.4873 -0.805264
0.4913 -0.801498
0.4953 -0.821373
0.4993 -0.807397
0.5033 -0.774706
0.5073 -0.764958
0.5113 -0.731241
0.5153 -0.754990
0.5193 -0.719914
0.5233 -0.714755
0.5273 -0.741942
0.5313 -0.741445
0.5353 -0.742068
0.5393 -0.750636
0.5433 -0.790017
0.5473 -0.766393
0.5513 -0.747837
0.5553 -0.761063
0.5593 -0.752465
0.5633 -0.751838
0.5673 -0.806755
0.5713 -0.745725
0.5753 -0.762922
0.5793 -0.714312
0.5833 -0.675539
0.5873 -0.684550
0.5913 -0.662522
0.5953 -0.639933
0.5993 -0.591896
0.6033 -0.585872
0.6073 -0.530321
0.6113 -0.510169
0.6153 -0.448378
0.6193 -0.418819
0.6233 -0.393733
0.6273 -0.393506
0.6313 -0.286827
0.6353 -0.255407
0.6393 -0.197240
0.6433 -0.136830
0.6473 -0.109006
0.6513 -0.054627
0.6553 -0.023278
0.6593 -0.024667
0.6633 -0.037735
0.6673 0.017024
0.6713 -0.043378
0.6753 -0.042756
0.6793 -0.056126
0.6833 -0.061063
0.6873 -0.036921
0.6913 -0.067260
0.6953 -0.092147
0.6993 -0.047912
0.7033 -0.085482
0.7073 -0.072286
0.7113 -0.139735
0.7153 -0.137700
0.7193 -0.175355
0.7233 -0.183800
0.7273 -0.182497
0.7313 -0.198237
0.7353 -0.192134
0.7393 -0.220728
0.7433 -0.222230
0.7473 -0.223559
0.7513 -0.205325
0.7553 -0.246787
0.7593 -0.247516
0.7633 -0.226947
0.7673 -0.260062
0.7713 -0.260912
0.7754 -0.270552
0.7794 -0.215494
0.7834 -0.256821
0.7874 -0.121662
0.7914 -0.172572
0.7954 -0.127656
0.7994 -0.125353
0.8034 -0.121193
0.8074 -0.167929
0.8114 -0.174661
0.8154 -0.160029
0.8194 -0.170700
0.8234 -0.179634
0.8274 -0.098428
0.8314 -0.176213
0.8354 -0.111226
0.8394 -0.141085
0.8434 -0.077278
0.8474 -0.086991
0.8514 -0.075957
0.8554 -0.089788
0.8594 -0.060594
0.8634 -0.089184
0.8674 -0.095347
0.8714 -0.101456
0.8754 -0.111050
0.8794 -0.030696
0.8834 -0.047666
0.8874 -0.114917
0.8914 -0.054939
0.8954 0.024629
0.8994 -0.067726
0.9034 -0.012949
0.9074 -0.015044
0.9114 -0.056636
0.9154 -0.045777
0.9194 -0.073299
0.9234 -0.043472
0.9274 -0.046127
0.9314 -0.040728
0.9354 -0.035545
0.9394 -0.070142
0.9434 -0.073559
0.9474 -0.064114
0.9514 -0.033732
0.9554 -0.031260
0.9594 -0.050066
0.9634 -0.048245
0.9674 -0.040502
0.9714 -0.042817
0.9754 -0.071917
0.9794 -0.089350
0.9834 -0.096966
0.9874 -0.100709
0.9914 -0.099469
0.9954 -0.081514
0.9994 -0.125359
1.0034 -0.114446
1.0074 -0.158743
1.0114 -0.118561
1.0154 -0.115611
1.0194 -0.034359
1.0234 -0.109416
1.0274 -0.070231
1.0314 -0.045934
1.0354 -0.087720
1.0394 -0.066525
1.0434 -0.056993
1.0474 -0.084119
1.0514 -0.062104
1.0554 -0.057456
1.0594 -0.029491
1.0634 -0.034250
1.0674 -0.036320
1.0714 -0.035870
1.0754 -0.060304
1.0794 0.014815
1.0834 -0.047247
1.0874 -0.034542
1.0914 -0.036237
1.0955 -0.015097
1.0995 -0.069330
1.1035 -0.062806
1.1075 -0.035376
1.1115 -0.067385
1.1155 -0.039264
1.1195 0.009528
1.1235 0.028879
1.1275 -0.016973
1.1315 -0.000209
1.1355 -0.026743
1.1395 -0.004332
1.1435 0.022735
1.1475 -0.035157
1.1515 0.042863
1.1555 -0.002723
1.1595 -0.017725
1.1635 0.050796
1.1675 -0.045551
1.1715 0.024038
1.1755 -0.046917
1.1795 -0.017710
1.1835 -0.000303
1.1875 0.010374
1.1915 -0.010549
1.1955 -0.050063
1.1995 0.000000
1.2035 -0.024138
1.2075 0.001898
1.2115 -0.065443
1.2155 -0.031830
1.2195 -0.044311
1.2235 -0.071571
1.2275 0.003932
1.2315 -0.010946
1.2355 0.006908
1.2395 -0.040672
1.2435 -0.006250
1.2475 -0.004602
1.2515 0.030387
1.2555 -0.003890
1.2595 -0.017665
1.2635 0.029315
1.2675 -0.012742
1.2715 0.009666
1.2755 -0.007772
1.2795 -0.031817
1.2835 -0.009711
1.2875 -0.035449
1.2915 0.017359
1.2955 0.018014
1.2995 0.012536
1.3035 0.017099
1.3075 0.010696
1.3115 -0.013523
1.3155 0.001879
1.3195 -0.033663
1.3235 -0.055405
1.3275 -0.034687
1.3315 -0.010863
1.3355 0.005453
1.3395 0.019951
1.3435 -0.021354
1.3475 -0.050861
1.3515 -0.047115
1.3555 0.046574
1.3595 -0.026784
1.3635 -0.035555
1.3675 0.022198
1.3715 -0.051624
1.3755 0.010775
1.3795 -0.033317
1.3835 0.005537
1.3875 0.015651
1.3915 -0.053292
1.3955 -0.018769
1.3995 0.051661
1.4035 -0.044214
1.4075 -0.018793
1.4115 -0.005336
1.4155 0.051653
1.4195 0.003636
1.4236 -0.043490
1.4276 -0.017697
1.4316 0.062954
1.4356 -0.010255
1.4396 0.032882
1.4436 0.078700
1.4476 0.035194
1.4516 0.075209
1.4556 0.066300
1.4596 0.039233
1.4636 0.080639
1.4676 0.018660
1.4716 0.016830
1.4756 0.020701
1.4796 0.033762
1.4836 0.007220
1.4876 0.025280
1.4916 0.018009
1.4956 0.070149
1.4996 0.027777
1.5036 0.057359
1.5076 0.039429
1.5116 0.057419
1.5156 0.057382
1.5196 0.046371
1.5236 0.060235
1.5276 0.060662
1.5316 0.065790
1.5356 0.056329
1.5396 0.043576
1.5436 0.047592
1.5476 0.050581
