# Ca -- Cl in GB (OBC1)
# r0[nm] k[kCal/mol/nm^2]
0.2711 13.890792
0.2751 12.689168
0.2791 12.254901
0.2831 10.608570
0.2871 8.399854
0.2911 6.415983
0.2951 4.686033
0.2991 3.145090
0.3031 1.911656
0.3071 0.930331
0.3111 0.158881
0.3151 -0.475767
0.3191 -0.973357
0.3231 -1.361926
0.3271 -1.677632
0.3311 -1.899976
0.3351 -2.071037
0.3391 -2.130347
0.3432 -2.230978
0.3472 -2.279103
0.3512 -2.261159
0.3552 -2.259679
0.3592 -2.261303
0.3632 -2.228553
0.3672 -2.179669
0.3712 -2.145546
0.3752 -2.093705
0.3792 -2.031884
0.3832 -2.010126
0.3872 -1.901899
0.3912 -1.836402
0.3952 -1.761607
0.3992 -1.667254
0.4032 -1.629215
0.4072 -1.579912
0.4112 -1.516267
0.4152 -1.448315
0.4192 -1.419852
0.4232 -1.318893
0.4272 -1.318766
0.4312 -1.251701
0.4352 -1.137920
0.4392 -1.137345
0.4432 -1.117512
0.4472 -1.068529
0.4512 -1.039323
0.4552 -1.023870
0.4592 -0.983358
0.4632 -0.930279
0.4672 -0.946900
0.4712 -0.890124
0.4752 -0.831314
0.4792 -0.853811
0.4832 -0.800661
0.4872 -0.788495
0.4912 -0.742936
0.4952 -0.753605
0.4992 -0.727082
0.5032 -0.719110
0.5072 -0.707250
0.5112 -0.623933
0.5152 -0.634825
0.5192 -0.623673
0.5232 -0.556508
0.5272 -0.575462
0.5312 -0.603713
0.5352 -0.590197
0.5392 -0.553988
0.5432 -0.554416
0.5472 -0.517312
0.5512 -0.474691
0.5552 -0.500847
0.5592 -0.445793
0.5632 -0.456732
0.5672 -0.479413
0.5712 -0.483292
0.5752 -0.431768
0.5792 -0.417711
0.5832 -0.427326
0.5872 -0.444132
0.5912 -0.431359
0.5952 -0.426869
0.5992 -0.374007
0.6032 -0.398606
0.6072 -0.377111
0.6112 -0.384429
0.6152 -0.386836
0.6192 -0.372756
0.6232 -0.376775
0.6272 -0.389284
0.6312 -0.371209
0.6352 -0.330806
0.6392 -0.360578
0.6433 -0.319818
0.6473 -0.337212
0.6513 -0.343933
0.6553 -0.366069
0.6593 -0.363573
0.6633 -0.333443
0.6673 -0.287530
0.6713 -0.317828
0.6753 -0.281672
0.6793 -0.288291
0.6833 -0.284519
0.6873 -0.262042
0.6913 -0.313563
0.6953 -0.280216
0.6993 -0.294485
0.7033 -0.243884
0.7073 -0.282563
0.7113 -0.267381
0.7153 -0.256367
0.7193 -0.271310
0.7233 -0.257613
0.7273 -0.230797
0.7313 -0.211039
0.7353 -0.198816
0.7393 -0.209969
0.7433 -0.190214
0.7473 -0.206176
0.7513 -0.238712
0.7553 -0.240207
0.7593 -0.194014
0.7633 -0.224027
0.7673 -0.216670
0.7713 -0.195099
0.7753 -0.185347
0.7793 -0.115034
0.7833 -0.076770
0.7873 -0.087053
0.7913 -0.098504
0.7953 -0.053034
0.7993 -0.029187
0.8033 -0.049500
0.8073 -0.126355
0.8113 -0.104298
0.8153 -0.032298
0.8193 -0.083612
0.8233 -0.078201
0.8273 -0.094501
0.8313 -0.061508
0.8353 -0.054346
0.8393 -0.089718
0.8433 -0.044783
0.8473 -0.021380
0.8513 -0.108862
0.8553 -0.069716
0.8593 -0.085595
0.8633 -0.065757
0.8673 -0.094134
0.8713 -0.112089
0.8753 -0.094923
0.8793 -0.092327
0.8833 -0.071086
0.8873 -0.098443
0.8913 -0.062044
0.8953 -0.096154
0.8993 -0.066420
0.9033 -0.031281
0.9073 -0.115233
0.9113 -0.014290
0.9153 -0.034944
0.9193 -0.032068
0.9233 -0.035430
0.9273 -0.050722
0.9313 -0.020701
0.9353 -0.021867
0.9394 -0.025263
0.9434 -0.043697
0.9474 -0.049817
0.9514 -0.043107
0.9554 -0.059112
0.9594 0.022707
0.9634 -0.032466
0.9674 -0.035326
0.9714 -0.024431
0.9754 0.015548
0.9794 -0.021930
0.9834 0.041996
0.9874 -0.020881
0.9914 0.056779
0.9954 0.011913
0.9994 0.000000
1.0034 0.023250
1.0074 -0.001954
1.0114 0.018348
1.0154 0.028350
1.0194 0.038586
1.0234 -0.011341
1.0274 0.041657
1.0314 0.094039
1.0354 0.022915
1.0394 0.083065
1.0434 0.002661
1.0474 0.058668
1.0514 0.069015
1.0554 0.051852
1.0594 0.009941
1.0634 0.037991
1.0674 0.068487
1.0714 0.132302
1.0754 0.075086
1.0794 0.080017
1.0834 0.102872
1.0874 0.050104
1.0914 0.133303
1.0954 0.101912
1.0994 0.050213
1.1034 0.127375
1.1074 0.080049
1.1114 0.123984
1.1154 0.082038
1.1194 0.147423
1.1234 0.160854
1.1274 0.099990
1.1314 0.159278
1.1354 0.097877
1.1394 0.106543
1.1434 0.158334
1.1474 0.126744
1.1514 0.158655
1.1554 0.198355
1.1594 0.151280
1.1634 0.130323
1.1674 0.155995
1.1714 0.146125
1.1754 0.139849
1.1794 0.132555
1.1834 0.172149
1.1874 0.174144
1.1914 0.160495
1.1954 0.217969
1.1994 0.197677
1.2034 0.229517
1.2074 0.161695
1.2114 0.223961
1.2154 0.171827
1.2194 0.129541
1.2234 0.122335
1.2274 0.172251
1.2314 0.162541
1.2354 0.171806
1.2395 0.172820
1.2435 0.167882
1.2475 0.144639
1.2515 0.155894
1.2555 0.172194
1.2595 0.171297
1.2635 0.166066
1.2675 0.122369
1.2715 0.223665
1.2755 0.222110
1.2795 0.233135
1.2835 0.172044
1.2875 0.183132
1.2915 0.176745
1.2955 0.200847
1.2995 0.216098
1.3035 0.223155
1.3075 0.213250
1.3115 0.180424
1.3155 0.174818
1.3195 0.220085
1.3235 0.218356
1.3275 0.233383
1.3315 0.220338
1.3355 0.223058
1.3395 0.216336
1.3435 0.230108
1.3475 0.221281
1.3515 0.212706
1.3555 0.201962
1.3595 0.258717
1.3635 0.246625
1.3675 0.191908
1.3715 0.223966
1.3755 0.231070
1.3795 0.259078
1.3835 0.237543
1.3875 0.221680
1.3915 0.289582
1.3955 0.272364
1.3995 0.216858
1.4035 0.223029
1.4075 0.264811
1.4115 0.244582
1.4155 0.264156
1.4195 0.228177
1.4235 0.221212
1.4275 0.262029
1.4315 0.228546
1.4355 0.247355
1.4395 0.223979
1.4435 0.242457
1.4475 0.233797
1.4515 0.280622
1.4555 0.294316
1.4595 0.285013
1.4635 0.259761
1.4675 0.301891
1.4715 0.304698
1.4755 0.317041
1.4795 0.304195
1.4835 0.406021
1.4875 0.370479
1.4915 0.337860
1.4955 0.301856
1.4995 0.331511
1.5035 0.309110
1.5075 0.241173
1.5115 0.242408
1.5155 0.255770
1.5195 0.292611
1.5235 0.251183
1.5275 0.248687
1.5315 0.268549
1.5356 0.284458
1.5396 0.305802
1.5436 0.303376
1.5476 0.303486
