# DMA(O) -- DMA(O) in GB*
# r0[nm] k[kCal/mol/nm^2]
0.2360 14.806622
0.2400 12.715524
0.2440 10.691401
0.2480 9.064387
0.2520 7.731391
0.2560 6.646713
0.2600 5.719536
0.2640 4.922698
0.2680 4.263249
0.2720 3.712363
0.2760 3.246155
0.2801 2.854848
0.2841 2.472857
0.2881 2.160537
0.2921 1.906785
0.2961 1.653419
0.3001 1.514922
0.3041 1.289102
0.3081 1.162914
0.3121 1.005796
0.3161 0.876658
0.3201 0.794524
0.3241 0.708377
0.3281 0.564310
0.3321 0.496001
0.3361 0.416954
0.3401 0.363311
0.3441 0.340824
0.3481 0.301981
0.3521 0.191274
0.3561 0.159348
0.3601 0.143936
0.3641 0.123510
0.3681 0.115780
0.3722 0.040364
0.3762 0.070769
0.3802 0.038120
0.3842 0.046654
0.3882 0.008370
0.3922 -0.040894
0.3962 -0.025184
0.4002 -0.031428
0.4042 -0.019885
0.4082 -0.011003
0.4122 -0.055334
0.4162 -0.022322
0.4202 -0.019532
0.4242 -0.017223
0.4282 -0.020730
0.4322 -0.053341
0.4362 -0.041955
0.4402 -0.085406
0.4442 -0.060416
0.4482 -0.111189
0.4522 -0.069357
0.4562 -0.118203
0.4602 -0.114168
0.4643 -0.118354
0.4683 -0.084106
0.4723 -0.120227
0.4763 -0.123738
0.4803 -0.090699
0.4843 -0.105758
0.4883 -0.073344
0.4923 -0.102406
0.4963 -0.115583
0.5003 -0.136257
0.5043 -0.069417
0.5083 -0.107488
0.5123 -0.121212
0.5163 -0.107081
0.5203 -0.132611
0.5243 -0.132271
0.5283 -0.147873
0.5323 -0.184605
0.5363 -0.172187
0.5403 -0.188488
0.5443 -0.166405
0.5483 -0.190553
0.5524 -0.207194
0.5564 -0.250062
0.5604 -0.203499
0.5644 -0.219059
0.5684 -0.196387
0.5724 -0.189472
0.5764 -0.199731
0.5804 -0.245386
0.5844 -0.202593
0.5884 -0.229748
0.5924 -0.196878
0.5964 -0.189341
0.6004 -0.260352
0.6044 -0.212379
0.6084 -0.210490
0.6124 -0.195235
0.6164 -0.213040
0.6204 -0.174201
0.6244 -0.175819
0.6284 -0.161751
0.6324 -0.211917
0.6364 -0.179988
0.6404 -0.209169
0.6445 -0.174896
0.6485 -0.193215
0.6525 -0.181391
0.6565 -0.181929
0.6605 -0.185538
0.6645 -0.140145
0.6685 -0.148304
0.6725 -0.126849
0.6765 -0.115241
0.6805 -0.110559
0.6845 -0.089603
0.6885 -0.089260
0.6925 -0.047491
0.6965 -0.025954
0.7005 -0.070394
0.7045 -0.053864
0.7085 -0.065439
0.7125 -0.018807
0.7165 -0.030256
0.7205 0.015426
0.7245 -0.072037
0.7285 -0.044256
0.7326 0.011106
0.7366 -0.005496
0.7406 0.070577
0.7446 0.052381
0.7486 0.034636
0.7526 -0.017600
0.7566 -0.024759
0.7606 -0.022290
0.7646 0.016410
0.7686 0.016162
0.7726 -0.009024
0.7766 0.014509
0.7806 -0.009752
0.7846 -0.019040
0.7886 -0.011118
0.7926 -0.041161
0.7966 -0.055513
0.8006 -0.110045
0.8046 -0.145422
0.8086 -0.053292
0.8126 -0.067259
0.8166 -0.053528
0.8206 -0.015180
0.8247 -0.058329
0.8287 -0.043349
0.8327 -0.095897
0.8367 -0.084312
0.8407 -0.015350
0.8447 -0.071147
0.8487 -0.023527
0.8527 -0.015326
0.8567 -0.094959
0.8607 -0.086157
0.8647 -0.087038
0.8687 -0.057946
0.8727 -0.067594
0.8767 -0.060949
0.8807 -0.037736
0.8847 -0.082887
0.8887 -0.015529
0.8927 -0.014749
0.8967 -0.042627
0.9007 -0.043800
0.9047 -0.011450
0.9087 -0.003938
0.9127 -0.060121
0.9168 -0.041963
0.9208 -0.021378
0.9248 0.026935
0.9288 0.006616
0.9328 0.076858
0.9368 0.015519
0.9408 0.032649
0.9448 -0.050617
0.9488 -0.040925
0.9528 -0.010044
0.9568 -0.031911
0.9608 -0.043203
0.9648 -0.000147
0.9688 0.000502
0.9728 -0.051532
0.9768 0.022436
0.9808 0.010328
0.9848 0.004644
0.9888 -0.004597
0.9928 -0.038377
0.9968 -0.012263
1.0008 -0.017058
1.0049 -0.026914
1.0089 -0.014481
1.0129 -0.027332
1.0169 -0.031861
1.0209 0.012666
1.0249 -0.037122
1.0289 -0.046000
1.0329 0.023856
1.0369 -0.033177
1.0409 -0.050606
1.0449 -0.102130
1.0489 -0.043610
1.0529 -0.055630
1.0569 -0.029359
1.0609 -0.012960
1.0649 -0.048321
1.0689 -0.070168
1.0729 -0.064777
1.0769 -0.121184
1.0809 -0.075996
1.0849 -0.087910
1.0889 -0.047089
1.0929 -0.039997
1.0970 -0.049917
1.1010 -0.074836
1.1050 -0.083591
1.1090 -0.050511
1.1130 -0.088422
1.1170 -0.119570
1.1210 -0.090336
1.1250 -0.052346
1.1290 -0.085300
1.1330 -0.049325
1.1370 -0.112548
1.1410 -0.066017
1.1450 -0.081287
1.1490 -0.051556
1.1530 -0.084272
1.1570 -0.071371
1.1610 -0.002330
1.1650 -0.018173
1.1690 -0.043576
1.1730 -0.076101
1.1770 -0.077782
1.1810 -0.105045
1.1850 -0.076195
1.1891 0.010941
1.1931 -0.012794
1.1971 -0.019616
1.2011 0.000000
1.2051 -0.027664
1.2091 -0.082058
1.2131 -0.029140
1.2171 -0.099070
1.2211 -0.087954
1.2251 -0.078647
1.2291 -0.041830
1.2331 -0.045921
1.2371 -0.051082
1.2411 -0.071250
1.2451 -0.065895
1.2491 -0.036785
1.2531 -0.085735
1.2571 -0.081267
1.2611 0.007962
1.2651 -0.034006
1.2691 -0.036812
1.2731 -0.087258
1.2772 -0.014421
1.2812 -0.002531
1.2852 -0.067044
1.2892 -0.044873
1.2932 0.011371
1.2972 -0.022676
1.3012 -0.011135
1.3052 -0.029394
1.3092 -0.030729
1.3132 -0.048107
1.3172 0.000948
1.3212 -0.037538
1.3252 -0.015141
1.3292 0.001656
1.3332 0.006367
1.3372 0.034960
1.3412 -0.016643
1.3452 -0.008335
1.3492 0.028408
1.3532 -0.011767
1.3572 -0.031567
1.3612 0.015130
1.3652 0.030384
1.3693 -0.003756
1.3733 -0.001455
1.3773 -0.048508
1.3813 0.048214
1.3853 -0.016568
1.3893 0.080762
1.3933 -0.042996
1.3973 -0.053596
1.4013 -0.037881
1.4053 -0.006791
1.4093 0.017249
1.4133 0.001521
1.4173 0.001660
1.4213 -0.001544
1.4253 -0.017318
1.4293 -0.003652
1.4333 0.042612
1.4373 0.024664
1.4413 -0.044414
1.4453 0.038383
1.4493 -0.016536
1.4533 -0.004566
1.4573 -0.015696
1.4614 -0.006955
1.4654 0.008023
1.4694 0.025925
1.4734 0.018379
1.4774 0.007256
1.4814 0.019836
1.4854 -0.002362
1.4894 -0.008027
1.4934 0.016710
1.4974 0.015555
1.5014 0.021753
1.5054 0.020862
1.5094 0.003415
1.5134 0.085434
1.5174 0.005248
1.5214 0.023168
1.5254 0.009746
1.5294 0.022493
1.5334 -0.014424
1.5374 0.002521
1.5414 0.023846
1.5454 0.007159
1.5494 -0.014525
