# Acetate(C2) -- Na in GB**
# r0[nm] k[kCal/mol/nm^2]
0.2108 13.121080
0.2148 11.357213
0.2188 8.663530
0.2228 7.173406
0.2268 6.446186
0.2308 6.070622
0.2348 5.616797
0.2388 5.087385
0.2428 4.595260
0.2468 3.992577
0.2509 3.409330
0.2549 2.845943
0.2589 2.253919
0.2629 1.649464
0.2669 1.049568
0.2709 0.512635
0.2749 0.092686
0.2789 -0.280117
0.2829 -0.550434
0.2869 -0.689845
0.2909 -0.880006
0.2949 -1.010740
0.2989 -1.140173
0.3029 -1.274007
0.3069 -1.308300
0.3109 -1.404216
0.3149 -1.455596
0.3189 -1.519489
0.3229 -1.608819
0.3269 -1.671363
0.3309 -1.711905
0.3349 -1.707580
0.3389 -1.664518
0.3429 -1.596749
0.3469 -1.456553
0.3509 -1.335754
0.3549 -1.188984
0.3589 -1.001344
0.3630 -0.846847
0.3670 -0.644623
0.3710 -0.409480
0.3750 -0.181820
0.3790 -0.057836
0.3830 0.147120
0.3870 0.340248
0.3910 0.426433
0.3950 0.563704
0.3990 0.615684
0.4030 0.573569
0.4070 0.559390
0.4110 0.523820
0.4150 0.425716
0.4190 0.352347
0.4230 0.243655
0.4270 0.151165
0.4310 0.074467
0.4350 0.006617
0.4390 -0.112137
0.4430 -0.129893
0.4470 -0.147346
0.4510 -0.237319
0.4550 -0.253552
0.4590 -0.270260
0.4630 -0.337619
0.4670 -0.332548
0.4710 -0.315645
0.4751 -0.345976
0.4791 -0.389766
0.4831 -0.378957
0.4871 -0.388708
0.4911 -0.382162
0.4951 -0.403838
0.4991 -0.429100
0.5031 -0.356301
0.5071 -0.335642
0.5111 -0.321542
0.5151 -0.316481
0.5191 -0.326854
0.5231 -0.320214
0.5271 -0.265432
0.5311 -0.306980
0.5351 -0.278572
0.5391 -0.307239
0.5431 -0.317080
0.5471 -0.256816
0.5511 -0.258290
0.5551 -0.250608
0.5591 -0.246313
0.5631 -0.217101
0.5671 -0.214669
0.5711 -0.231812
0.5751 -0.202536
0.5791 -0.171300
0.5831 -0.159988
0.5872 -0.154625
0.5912 -0.104258
0.5952 -0.128231
0.5992 -0.055266
0.6032 -0.075609
0.6072 -0.038980
0.6112 -0.024009
0.6152 0.011389
0.6192 0.070939
0.6232 0.109539
0.6272 0.138796
0.6312 0.130427
0.6352 0.114849
0.6392 0.112406
0.6432 0.096081
0.6472 0.104086
0.6512 0.089277
0.6552 0.132381
0.6592 0.084684
0.6632 0.104571
0.6672 0.077174
0.6712 0.088305
0.6752 0.093971
0.6792 0.097963
0.6832 0.102457
0.6872 0.080279
0.6912 0.077048
0.6952 0.025012
0.6993 -0.051929
0.7033 -0.038195
0.7073 -0.026680
0.7113 -0.048457
0.7153 -0.015209
0.7193 -0.021454
0.7233 -0.027337
0.7273 -0.029109
0.7313 -0.053849
0.7353 -0.045246
0.7393 -0.048620
0.7433 -0.045598
0.7473 -0.041844
0.7513 -0.005505
0.7553 0.027758
0.7593 -0.034933
0.7633 -0.011655
0.7673 0.036535
0.7713 0.005572
0.7753 0.011314
0.7793 -0.014557
0.7833 -0.075229
0.7873 -0.089789
0.7913 -0.044103
0.7953 -0.088091
0.7993 -0.033163
0.8033 0.020468
0.8073 0.011918
0.8114 0.035619
0.8154 0.009867
0.8194 0.094753
0.8234 0.081367
0.8274 0.110380
0.8314 0.023513
0.8354 0.058842
0.8394 0.044630
0.8434 0.024088
0.8474 0.042062
0.8514 0.031520
0.8554 0.106317
0.8594 0.124869
0.8634 0.078818
0.8674 0.118283
0.8714 0.077711
0.8754 0.096207
0.8794 0.076034
0.8834 0.059841
0.8874 0.050814
0.8914 0.039518
0.8954 0.024014
0.8994 0.054126
0.9034 0.059621
0.9074 0.013276
0.9114 0.012629
0.9154 0.082052
0.9194 0.018551
0.9235 0.002419
0.9275 0.067983
0.9315 0.111607
0.9355 0.075205
0.9395 0.070957
0.9435 0.052224
0.9475 0.124243
0.9515 0.122201
0.9555 0.151720
0.9595 0.119622
0.9635 0.143879
0.9675 0.168457
0.9715 0.148061
0.9755 0.097746
0.9795 0.113458
0.9835 0.089796
0.9875 0.110149
0.9915 0.128739
0.9955 0.086850
0.9995 0.109301
1.0035 0.087807
1.0075 0.023579
1.0115 0.067485
1.0155 0.081789
1.0195 0.098950
1.0235 0.084634
1.0275 0.131558
1.0315 0.093771
1.0356 0.112679
1.0396 0.129426
1.0436 0.083889
1.0476 0.106287
1.0516 0.163053
1.0556 0.061955
1.0596 0.133234
1.0636 0.111249
1.0676 0.082787
1.0716 0.084332
1.0756 0.108816
1.0796 0.031631
1.0836 0.137743
1.0876 0.147642
1.0916 0.158940
1.0956 0.028784
1.0996 0.075133
1.1036 0.051441
1.1076 0.050784
1.1116 0.014985
1.1156 -0.004768
1.1196 -0.020516
1.1236 0.013864
1.1276 -0.026481
1.1316 0.006126
1.1356 0.015725
1.1396 -0.026870
1.1436 0.012666
1.1477 0.043331
1.1517 0.097317
1.1557 0.104586
1.1597 0.103820
1.1637 0.144514
1.1677 0.087194
1.1717 0.063215
1.1757 0.096628
1.1797 0.082212
1.1837 0.004128
1.1877 -0.020816
1.1917 0.052536
1.1957 0.004322
1.1997 0.000000
1.2037 0.056349
1.2077 0.049047
1.2117 0.043003
1.2157 0.052517
1.2197 0.021188
1.2237 0.025063
1.2277 0.080825
1.2317 0.053402
1.2357 0.017002
1.2397 0.103274
1.2437 0.046629
1.2477 0.076937
1.2517 0.063312
1.2557 0.040525
1.2598 0.035788
1.2638 0.035840
1.2678 0.008807
1.2718 0.097193
1.2758 0.079541
1.2798 0.099676
1.2838 0.109638
1.2878 0.001127
1.2918 0.068694
1.2958 0.060521
1.2998 0.052612
1.3038 0.042711
1.3078 0.011606
1.3118 0.027724
1.3158 -0.002138
1.3198 -0.016719
1.3238 0.022417
1.3278 0.048669
1.3318 0.056674
1.3358 0.063800
1.3398 0.025290
1.3438 0.060875
1.3478 0.043907
1.3518 0.109807
1.3558 0.051458
1.3598 0.040493
1.3638 0.026157
1.3678 0.104751
1.3719 0.050030
1.3759 0.128815
1.3799 0.101550
1.3839 0.067341
1.3879 0.114170
1.3919 0.083089
1.3959 0.074629
1.3999 0.061405
1.4039 0.089421
1.4079 0.028448
1.4119 0.069620
1.4159 0.078128
1.4199 0.061973
1.4239 0.098442
1.4279 0.099205
1.4319 0.058406
1.4359 0.057040
1.4399 0.039835
1.4439 0.074895
1.4479 0.076700
1.4519 0.100162
1.4559 0.067462
1.4599 0.055701
1.4639 0.132957
1.4679 0.105189
1.4719 0.044576
1.4759 0.073997
1.4799 0.125698
1.4840 0.131227
1.4880 0.116229
1.4920 0.095351
1.4960 0.093988
1.5000 0.113387
1.5040 0.086752
1.5080 0.065942
1.5120 0.081194
1.5160 0.091962
1.5200 0.037155
1.5240 0.112258
1.5280 0.088708
1.5320 0.076317
1.5360 0.105630
1.5400 0.089452
1.5440 0.101278
1.5480 0.050984
