# Acetate(C2) -- Na in MM (Tip3p)
# r0[nm] k[kCal/mol/nm^2]
0.2196 10.289745
0.2236 9.035140
0.2276 7.326432
0.2316 5.672405
0.2356 4.250488
0.2396 3.083043
0.2436 2.094855
0.2476 1.263267
0.2516 0.551233
0.2555 -0.035955
0.2596 -0.493097
0.2636 -0.789567
0.2675 -0.948208
0.2715 -1.038885
0.2755 -0.960205
0.2795 -0.875170
0.2835 -0.733290
0.2875 -0.556451
0.2915 -0.476167
0.2955 -0.402732
0.2995 -0.313957
0.3035 -0.370150
0.3075 -0.348390
0.3115 -0.360331
0.3155 -0.420224
0.3195 -0.442662
0.3235 -0.479931
0.3275 -0.464500
0.3315 -0.430746
0.3355 -0.336799
0.3395 -0.291466
0.3435 -0.167164
0.3475 -0.014261
0.3515 0.148979
0.3555 0.346669
0.3595 0.549631
0.3635 0.797076
0.3675 0.975066
0.3715 1.132112
0.3755 1.241616
0.3795 1.346038
0.3835 1.344299
0.3875 1.368847
0.3915 1.317676
0.3955 1.274999
0.3995 1.189621
0.4035 1.142534
0.4075 1.035305
0.4115 0.926579
0.4155 0.820104
0.4195 0.739729
0.4235 0.643526
0.4275 0.554540
0.4315 0.482015
0.4355 0.419805
0.4395 0.312141
0.4435 0.261264
0.4475 0.151933
0.4515 0.128840
0.4555 0.092309
0.4595 0.055332
0.4635 -0.008048
0.4675 -0.037271
0.4715 -0.090886
0.4755 -0.115575
0.4795 -0.174760
0.4835 -0.208700
0.4875 -0.230927
0.4915 -0.248603
0.4955 -0.282090
0.4995 -0.283499
0.5035 -0.319236
0.5075 -0.317268
0.5115 -0.314945
0.5155 -0.315407
0.5195 -0.299033
0.5235 -0.313193
0.5275 -0.325633
0.5315 -0.340801
0.5355 -0.325761
0.5395 -0.330209
0.5435 -0.329300
0.5475 -0.315773
0.5515 -0.295404
0.5555 -0.309497
0.5595 -0.307126
0.5635 -0.307545
0.5675 -0.276320
0.5715 -0.259416
0.5755 -0.245012
0.5795 -0.263617
0.5835 -0.200417
0.5875 -0.173203
0.5915 -0.136280
0.5955 -0.147240
0.5995 -0.129798
0.6035 -0.109379
0.6075 -0.073564
0.6115 -0.019723
0.6155 0.005077
0.6195 0.037066
0.6235 0.027055
0.6275 0.048564
0.6315 0.109462
0.6355 0.067303
0.6395 0.081447
0.6435 0.079635
0.6475 0.053182
0.6515 0.079775
0.6555 0.072060
0.6595 0.035760
0.6635 0.058645
0.6675 0.052058
0.6715 0.014156
0.6755 0.008484
0.6795 0.024906
0.6835 0.064277
0.6875 -0.018879
0.6915 -0.006105
0.6955 -0.015288
0.6995 -0.057394
0.7035 -0.055228
0.7075 -0.056452
0.7115 -0.069510
0.7155 -0.058328
0.7195 -0.048044
0.7235 -0.054416
0.7275 -0.058148
0.7315 -0.066553
0.7355 -0.050749
0.7395 -0.084251
0.7435 -0.074818
0.7475 -0.045506
0.7515 -0.048000
0.7555 -0.050942
0.7595 -0.021147
0.7635 0.004380
0.7675 -0.028784
0.7715 -0.026450
0.7755 -0.019033
0.7795 -0.065070
0.7835 -0.065236
0.7875 -0.012023
0.7915 -0.006223
0.7955 -0.058227
0.7995 0.016901
0.8035 0.018992
0.8075 0.030357
0.8115 0.035848
0.8155 0.033427
0.8195 0.054554
0.8235 0.068834
0.8275 0.056408
0.8315 0.052587
0.8355 0.095159
0.8395 0.060190
0.8435 0.051162
0.8475 0.033194
0.8515 0.071720
0.8555 0.054344
0.8595 0.069560
0.8635 0.090133
0.8675 0.098385
0.8715 0.021770
0.8755 0.079174
0.8795 0.067171
0.8835 0.032932
0.8875 0.004761
0.8915 0.028102
0.8955 0.039516
0.8995 0.070661
0.9035 0.062494
0.9075 -0.002062
0.9115 0.052063
0.9155 0.024155
0.9195 0.048184
0.9235 0.050311
0.9275 0.044187
0.9315 0.063961
0.9355 0.061354
0.9395 0.032297
0.9435 0.090695
0.9475 0.082307
0.9515 0.121819
0.9555 0.043772
0.9595 0.090011
0.9635 0.087044
0.9675 0.066901
0.9715 0.102368
0.9755 0.066897
0.9795 0.068011
0.9835 0.071611
0.9875 0.052944
0.9915 0.085244
0.9955 0.109071
0.9995 0.059107
1.0035 0.047301
1.0075 0.038882
1.0115 0.022664
1.0155 0.036550
1.0195 0.113052
1.0235 0.087527
1.0275 0.081171
1.0315 0.078551
1.0355 0.071025
1.0395 0.077750
1.0435 0.062527
1.0475 0.069735
1.0515 0.109395
1.0555 0.046773
1.0595 0.087423
1.0635 -0.004043
1.0675 0.073670
1.0715 0.041440
1.0755 0.051859
1.0795 0.057492
1.0835 0.072724
1.0875 0.088182
1.0915 0.051350
1.0955 0.059931
1.0995 -0.013573
1.1035 0.066796
1.1075 0.056362
1.1115 0.017898
1.1155 0.056919
1.1195 0.005662
1.1235 -0.006120
1.1275 0.053199
1.1315 0.020110
1.1355 0.038711
1.1395 -0.013938
1.1435 0.011007
1.1475 -0.039142
1.1515 0.031657
1.1555 0.054206
1.1595 0.027348
1.1635 0.049439
1.1675 0.035578
1.1715 -0.012056
1.1755 -0.009162
1.1795 0.064782
1.1835 0.019546
1.1875 -0.005394
1.1915 0.053110
1.1955 0.003822
1.1995 0.000000
1.2035 0.005396
1.2075 0.010637
1.2115 0.017045
1.2155 0.022343
1.2195 0.026646
1.2235 -0.063284
1.2275 -0.041475
1.2315 -0.024243
1.2355 -0.036486
1.2395 -0.033717
1.2435 -0.045588
1.2475 0.011540
1.2515 -0.011760
1.2555 -0.018868
1.2595 -0.005483
1.2635 -0.044185
1.2675 -0.023691
1.2715 -0.046204
1.2755 -0.007980
1.2795 -0.024055
1.2835 0.040343
1.2875 -0.018012
1.2915 0.021444
1.2955 0.012952
1.2995 0.002416
1.3035 -0.004155
1.3075 0.020449
1.3115 0.021186
1.3155 0.006275
1.3195 0.007957
1.3235 0.020114
1.3275 -0.020566
1.3315 0.071208
1.3355 0.024477
1.3395 0.027982
1.3435 0.008995
1.3474 0.002282
1.3514 -0.014404
1.3554 0.038531
1.3594 -0.017167
1.3634 0.052093
1.3674 0.053040
1.3714 -0.009775
1.3754 0.085433
1.3794 0.037454
1.3834 -0.014351
1.3874 0.054836
1.3914 0.044165
1.3954 0.010438
1.3994 0.056911
1.4034 0.035189
1.4074 0.036251
1.4114 0.019724
1.4154 0.026551
1.4194 0.061234
1.4234 0.025781
1.4274 0.055889
1.4314 0.077474
1.4354 0.048875
1.4394 0.037769
1.4434 0.034835
1.4474 0.045731
1.4514 0.011964
1.4554 0.041871
1.4594 0.040155
1.4634 0.071631
1.4674 0.103504
1.4714 0.061396
1.4754 0.076468
1.4794 0.091553
1.4834 0.069785
1.4874 0.119028
1.4914 0.083422
1.4954 0.080363
1.4994 0.069003
1.5034 0.057966
1.5074 0.088440
1.5114 0.052551
1.5154 0.103371
1.5194 0.086536
1.5234 0.061689
1.5274 0.090025
1.5314 0.085955
1.5354 0.105173
1.5394 0.067134
1.5434 0.051744
1.5474 0.042469
