# Na -- Cl in GB (OBC1)
# r0[nm] k[kCal/mol/nm^2]
0.2226 9.663020
0.2266 9.310066
0.2306 9.138118
0.2346 8.665723
0.2386 7.894468
0.2426 7.309377
0.2466 4.954213
0.2506 3.229705
0.2546 1.756771
0.2586 0.656382
0.2626 -0.257247
0.2666 -0.966134
0.2706 -1.513658
0.2746 -1.934769
0.2786 -2.255071
0.2826 -2.491605
0.2866 -2.632832
0.2906 -2.750323
0.2946 -2.737708
0.2986 -2.738430
0.3026 -2.769980
0.3066 -2.717291
0.3106 -2.659080
0.3146 -2.624050
0.3186 -2.515376
0.3226 -2.444807
0.3266 -2.362110
0.3306 -2.260852
0.3346 -2.157113
0.3386 -2.102622
0.3426 -2.025669
0.3466 -1.931480
0.3506 -1.878333
0.3546 -1.754356
0.3586 -1.729603
0.3626 -1.621371
0.3666 -1.547597
0.3706 -1.533206
0.3746 -1.438845
0.3786 -1.368090
0.3826 -1.312067
0.3866 -1.235396
0.3906 -1.210055
0.3946 -1.164867
0.3986 -1.132214
0.4026 -1.062441
0.4066 -0.982775
0.4106 -0.921262
0.4146 -0.877849
0.4186 -0.876347
0.4226 -0.836178
0.4266 -0.820881
0.4307 -0.776110
0.4347 -0.739778
0.4387 -0.726281
0.4427 -0.697467
0.4467 -0.709001
0.4507 -0.635033
0.4547 -0.633444
0.4587 -0.600886
0.4627 -0.579614
0.4667 -0.569291
0.4707 -0.553421
0.4747 -0.556867
0.4787 -0.547691
0.4827 -0.501011
0.4867 -0.508272
0.4907 -0.501926
0.4947 -0.465718
0.4987 -0.494115
0.5027 -0.445033
0.5067 -0.473031
0.5107 -0.434031
0.5147 -0.395431
0.5187 -0.357063
0.5227 -0.369341
0.5267 -0.367073
0.5307 -0.387478
0.5347 -0.354251
0.5387 -0.366264
0.5427 -0.347301
0.5467 -0.343745
0.5507 -0.345227
0.5547 -0.299224
0.5587 -0.303350
0.5627 -0.267237
0.5667 -0.313410
0.5707 -0.313141
0.5747 -0.284976
0.5787 -0.291157
0.5827 -0.257838
0.5867 -0.261553
0.5907 -0.280655
0.5947 -0.253341
0.5987 -0.230150
0.6027 -0.252132
0.6067 -0.235162
0.6107 -0.258519
0.6147 -0.241424
0.6187 -0.265291
0.6227 -0.293911
0.6267 -0.248331
0.6307 -0.269709
0.6347 -0.268303
0.6387 -0.233485
0.6427 -0.259544
0.6467 -0.282117
0.6507 -0.227557
0.6547 -0.195992
0.6587 -0.171033
0.6627 -0.163460
0.6667 -0.189515
0.6707 -0.176786
0.6747 -0.218070
0.6787 -0.226543
0.6827 -0.235519
0.6867 -0.190951
0.6907 -0.173549
0.6947 -0.178487
0.6987 -0.195057
0.7027 -0.176967
0.7067 -0.193304
0.7107 -0.176302
0.7147 -0.215911
0.7187 -0.165736
0.7227 -0.185622
0.7267 -0.187686
0.7307 -0.174651
0.7347 -0.156606
0.7387 -0.175392
0.7427 -0.117533
0.7467 -0.140366
0.7507 -0.132095
0.7547 -0.094962
0.7587 -0.133823
0.7627 -0.122133
0.7668 -0.101174
0.7708 -0.129562
0.7748 -0.131430
0.7788 -0.139008
0.7828 -0.142346
0.7868 -0.096341
0.7908 -0.151808
0.7948 -0.093517
0.7988 -0.029472
0.8028 -0.069109
0.8068 -0.106765
0.8108 -0.087964
0.8148 -0.102826
0.8188 -0.090184
0.8228 -0.122657
0.8268 -0.129653
0.8308 -0.140362
0.8348 -0.116756
0.8388 -0.092307
0.8428 -0.099740
0.8468 -0.084814
0.8508 -0.128198
0.8548 -0.117856
0.8588 -0.085872
0.8628 -0.084384
0.8668 -0.121371
0.8708 -0.122904
0.8748 -0.101500
0.8788 -0.069795
0.8828 -0.091026
0.8868 -0.071611
0.8908 -0.115937
0.8948 -0.054195
0.8988 -0.068765
0.9028 -0.046154
0.9068 -0.073816
0.9108 -0.079080
0.9148 -0.076058
0.9188 -0.086115
0.9228 -0.033765
0.9268 -0.078819
0.9308 -0.065952
0.9348 -0.051641
0.9388 -0.125016
0.9428 -0.064771
0.9468 -0.017382
0.9508 -0.065983
0.9548 -0.080291
0.9588 -0.071355
0.9628 -0.077479
0.9668 -0.098075
0.9708 -0.043103
0.9748 -0.063583
0.9788 -0.047261
0.9828 -0.007999
0.9868 -0.079059
0.9908 -0.054684
0.9948 -0.064632
0.9988 0.000000
1.0028 -0.029742
1.0068 -0.014607
1.0108 0.010683
1.0148 -0.025960
1.0188 0.026582
1.0228 0.025640
1.0268 -0.059099
1.0308 0.000191
1.0348 -0.012674
1.0388 -0.047273
1.0428 -0.021773
1.0468 -0.066128
1.0508 -0.025849
1.0548 -0.019265
1.0588 0.006776
1.0628 -0.046329
1.0668 0.038969
1.0708 0.008574
1.0748 0.013278
1.0788 -0.001735
1.0828 0.006070
1.0868 0.006364
1.0908 0.020031
1.0948 0.001774
1.0988 0.016709
1.1028 0.003811
1.1068 -0.044039
1.1108 -0.060419
1.1149 -0.048103
1.1189 -0.029813
1.1229 -0.001564
1.1269 -0.048787
1.1309 -0.041510
1.1349 -0.029509
1.1389 0.014540
1.1429 0.029258
1.1469 0.109223
1.1509 0.025221
1.1549 0.002058
1.1589 0.028189
1.1629 0.041339
1.1669 0.050625
1.1709 0.077582
1.1749 0.039092
1.1789 0.025108
1.1829 0.018551
1.1869 0.054983
1.1909 -0.029093
1.1949 0.035544
1.1989 0.041847
1.2029 0.044338
1.2069 0.077363
1.2109 0.055961
1.2149 0.041242
1.2189 0.055417
1.2229 0.019037
1.2269 0.068965
1.2309 0.043887
1.2349 0.033655
1.2389 0.037288
1.2429 -0.003123
1.2469 0.048626
1.2509 0.056470
1.2549 0.025737
1.2589 0.096115
1.2629 0.099516
1.2669 0.127940
1.2709 0.051094
1.2749 0.061319
1.2789 0.078720
1.2829 0.049980
1.2869 0.085855
1.2909 0.083988
1.2949 0.078282
1.2989 0.073872
1.3029 0.022871
1.3069 0.060832
1.3109 0.004616
1.3149 0.045197
1.3189 0.048654
1.3229 0.026618
1.3269 0.029876
1.3309 0.049449
1.3349 0.051822
1.3389 0.043846
1.3429 0.070604
1.3469 0.051013
1.3509 0.053118
1.3549 0.079361
1.3589 0.060759
1.3629 0.053029
1.3669 0.065223
1.3709 0.082414
1.3749 0.069105
1.3789 0.076581
1.3829 0.011077
1.3869 0.078625
1.3909 0.075505
1.3949 0.068724
1.3989 0.072625
1.4029 0.113950
1.4069 0.046394
1.4109 0.056510
1.4149 0.053747
1.4189 0.049955
1.4229 0.088452
1.4269 0.055975
1.4309 0.058757
1.4349 0.025945
1.4389 0.028727
1.4429 0.067452
1.4469 0.059558
1.4509 0.043694
1.4550 0.066469
1.4590 0.058925
1.4630 0.035711
1.4670 0.082614
1.4710 0.033617
1.4750 0.126655
1.4790 0.077450
1.4830 0.095118
1.4870 0.071162
1.4910 0.095437
1.4950 0.095369
1.4990 0.094093
1.5030 0.090473
1.5070 0.077323
1.5110 0.112134
1.5150 0.051931
1.5190 0.032723
1.5230 0.035822
1.5270 0.030883
1.5310 0.078793
1.5350 0.076944
1.5390 0.069254
1.5430 0.087029
1.5470 0.104336
